# SOURCE  = 'Quimby et al. 2018' /                                                
# OBJECT  = 'PTF11hrq'           /                                                
# Z       =            0.0571000 / wavelengths divided by (1 + z)                 
# NORM    =            0.0200070 / fluxes divided by norm                         
# CLIPPED =                    1 / galaxy emission lines removed                  
# SMOOTHED=                    1 / spectrum has been smoothed                     
# COLUMN01= 'Wavelength (Angstrom)' /                                             
# COLUMN02= 'Flux Density (erg/s/cm2/A)' /                                        
# COLUMN03= 'Flux Density Uncertainty (erg/s/cm2/A)' /                            
# END                                                                             
# 
# 
# 
# 
# 
# 
# 
# 
# 
# 
   4907.8407018      1.4463865      0.0345073
   4912.7452741      1.4448373      0.0319736
   4917.6606859      1.4423738      0.0274975
   4922.5766138      1.4394413      0.0255512
   4927.5023489      1.4362170      0.0238011
   4932.4286000      1.4328345      0.0222256
   4937.3651744      1.4295748      0.0208104
   4942.2914256      1.4263085      0.0201127
   4947.2383232      1.4229856      0.0189350
   4952.1857371      1.4194399      0.0178873
   4957.1434741      1.4158961      0.0169616
   4962.1012112      1.4124049      0.0161517
   4967.0589482      1.4088845      0.0142857
   4972.0275247      1.4052876      0.0137760
   4976.9961011      1.4015571      0.0133642
   4981.9750009      1.3981251      0.0130456
   4986.9539006      1.3948071      0.0128131
   4991.9431235      1.3913369      0.0129104
   4996.9431859      1.3881458      0.0128202
   5001.9329250      1.3835995      0.0137693
   5006.9329874      1.3852376      0.0147032
   5011.9438891      1.3788472      0.0156545
   5016.9542747      1.3703812      0.0169485
   5021.9754997      1.3666241      0.0181093
   5026.9967247      1.3690231      0.0241389
   5032.0287891      1.3665522      0.0240236
   5037.0500141      1.3640583      0.0239896
   5042.0924018      1.3615746      0.0238538
   5047.1342732      1.3629320      0.0252639
   5052.1875003      1.3597201      0.0285401
   5057.2402112      1.3593272      0.0303922
   5062.2934383      1.3642261      0.0320036
   5067.3569885      1.3616261      0.0334589
   5072.4205388      1.3506854      0.0356739
   5077.4944124      1.3388623      0.0410758
   5082.5682859      1.3385049      0.0420931
   5087.6529989      1.3392153      0.0432851
   5092.7485511      1.3349626      0.0442221
   5097.8435874      1.3288136      0.0452350
   5102.9386235      1.3206939      0.0462968
   5108.0341759      1.3111639      0.0473845
   5113.1503747      1.3017750      0.0484753
   5118.2562503      1.2966315      0.0501811
   5123.3724491      1.2950875      0.0512113
   5128.4994874      1.2896039      0.0521604
   5133.6265256      1.2808518      0.0529971
   5138.7638871      1.2750024      0.0536930
   5143.9012485      1.2720509      0.0542756
   5149.0494494      1.2732356      0.0539649
   5154.1976503      1.2747011      0.0540199
   5159.3458511      1.2817054      0.0539232
   5164.5146985      1.2906122      0.0536979
   5169.6737388      1.3067461      0.0533753
   5174.8425862      1.3168727      0.0535803
   5180.0227891      1.3259758      0.0534014
   5185.2024759      1.3366392      0.0533487
   5190.3821626      1.3606803      0.0527768
   5195.5830121      1.3756073      0.0520697
   5200.7735383      1.3830695      0.0516823
   5205.9743876      1.3813198      0.0524916
   5211.1860765      1.3860588      0.0519369
   5216.3869259      1.3994789      0.0524534
   5221.6089379      1.4058253      0.0540976
   5226.8309500      1.4036851      0.0553158
   5232.0529621      1.4021086      0.0573524
   5237.2858135      1.3996871      0.0561810
   5242.5289883      1.4054620      0.0585872
   5247.7721629      1.4129781      0.0543928
   5253.0153376      1.4177457      0.0546199
   5258.2693518      1.4236898      0.0547082
   5263.5336891      1.4296992      0.0557060
   5268.7980265      1.4403747      0.0564197
   5274.0623638      1.4517145      0.0569220
   5279.3370244      1.4601427      0.0571224
   5284.6122011      1.4674639      0.0561898
   5289.8977011      1.4728256      0.0555037
   5295.1935244      1.4743288      0.0535231
   5300.4898638      1.4732318      0.0520218
   5305.7856871      1.4736862      0.0512529
   5311.0923497      1.4656630      0.0499964
   5316.3990124      1.4536310      0.0478574
   5321.7159982      1.4339817      0.0450961
   5327.0438235      1.4215719      0.0426916
   5332.3716489      1.4071237      0.0410747
   5337.7103135      1.3941500      0.0396348
   5343.0381388      1.3812125      0.0384284
   5348.3871268      1.3696189      0.0375580
   5353.7355985      1.3554515      0.0369277
   5359.0845865      1.3332314      0.0380903
   5364.4444138      1.3225018      0.0365331
   5369.8140482      1.3124801      0.0352391
   5375.1841989      1.3006810      0.0341364
   5380.5543494      1.2905864      0.0334532
   5385.9348232      1.2806222      0.0322249
   5391.3261365      1.2855679      0.0365014
   5396.7174497      1.2780597      0.0360763
   5402.1087629      1.2732841      0.0353813
   5407.5103994      1.2699310      0.0346988
   5412.9228753      1.2670896      0.0340293
   5418.3353511      1.2749956      0.0328161
   5423.7581503      1.2784874      0.0321691
   5429.1809494      1.2798856      0.0315367
   5434.6037485      1.2802494      0.0311506
   5440.0482265      1.2819021      0.0305426
   5445.4813489      1.2820941      0.0299495
   5450.9258268      1.2787368      0.0288783
   5456.3801117      1.2799360      0.0283091
   5461.8349129      1.2827330      0.0277543
   5467.3000374      1.2862335      0.0274176
   5472.7651617      1.2892482      0.0268871
   5478.2411256      1.2888453      0.0259353
   5483.7165732      1.2849753      0.0254269
   5489.2033765      1.2781858      0.0249320
   5494.6896635      1.2684346      0.0244505
   5500.1862739      1.2626153      0.0237809
   5505.6834003      1.2598791      0.0233163
   5511.1908500      1.2529325      0.0228647
   5516.7091391      1.2483792      0.0224257
   5522.2165888      1.2488288      0.0224051
   5527.7452011      1.2427785      0.0214155
   5533.2738135      1.2335320      0.0209916
   5538.8024259      1.2322483      0.0206742
   5544.3413615      1.2332574      0.0204632
   5549.8911365      1.2345057      0.0199974
   5555.4409115      1.2353135      0.0198315
   5560.9906865      1.2386308      0.0198132
   5566.5513009      1.2430021      0.0195696
   5572.1222385      1.2478045      0.0189214
   5577.6931761      1.2523655      0.0185563
   5583.2744371      1.2567369      0.0181364
   5588.8562141      1.2595803      0.0177812
   5594.4477982      1.2562195      0.0170514
   5600.0398985      1.2528321      0.0165994
   5605.6428383      1.2529576      0.0161709
   5611.2452617      1.2488512      0.0158556
   5616.8585247      1.2398401      0.0153184
   5622.4717876      1.2345251      0.0150637
   5628.0953739      1.2280700      0.0149113
   5633.7297994      1.2179329      0.0144206
   5639.3642250      1.2077733      0.0141740
   5644.9986506      1.2005328      0.0139354
   5650.6433994      1.1940311      0.0137046
   5656.2989876      1.1919401      0.0132684
   5661.9545759      1.1896852      0.0131459
   5667.6204874      1.1861532      0.0129300
   5673.2760756      1.1806827      0.0125280
   5678.9528265      1.1726660      0.0123203
   5684.6399006      1.1658521      0.0122120
   5690.3166515      1.1573501      0.0120158
   5696.0140489      1.1486433      0.0116442
   5701.7016391      1.1430058      0.0114545
   5707.4098759      1.1395684      0.0113576
   5713.1181126      1.1383600      0.0110111
   5718.8263494      1.1347831      0.0108314
   5724.5454256      1.1348253      0.0106568
   5730.2748250      1.1391562      0.0104140
   5736.0042244      1.1376318      0.0102425
   5741.7444633      1.1367379      0.0100752
   5747.4841859      1.1346973      0.0099890
   5753.2352641      1.1324859      0.0096801
   5758.9858261      1.1329165      0.0095188
   5764.7467115      1.1333588      0.0093613
   5770.5081129      1.1292711      0.0091376
   5776.2798376      1.1220434      0.0089802
   5782.0515624      1.1143160      0.0088260
   5787.8341265      1.1068618      0.0085456
   5793.6270138      1.1009104      0.0084522
   5799.4199011      1.0971932      0.0082994
   5805.2231117      1.0967913      0.0080250
   5811.0268385      1.1000305      0.0079274
   5816.8408885      1.1072216      0.0076534
   5822.6549385      1.1073915      0.0075031
   5828.4793117      1.1071213      0.0073983
   5834.3042011      1.1082926      0.0071258
   5840.1394138      1.1093020      0.0069721
   5845.9746265      1.1104834      0.0068571
   5851.8201624      1.1094629      0.0065833
   5857.6765376      1.1054488      0.0064239
   5863.5329129      1.1064445      0.0062643
   5869.3996115      1.1083601      0.0060177
   5875.2668261      1.1054752      0.0058504
   5881.1443641      1.1049790      0.0057380
   5887.0322253      1.1111519      0.0054212
   5892.9097633      1.1193928      0.0052503
   5898.8084638      1.1223904      0.0049908
   5904.7066482      1.1257788      0.0048476
   5910.6161883      1.1265342      0.0048968
   5916.5252121      1.1275285      0.0049841
   5922.4342359      1.1222880      0.0043476
   5928.3649385      1.1190540      0.0040617
   5934.2951250      1.1152766      0.0039826
   5940.2253115      1.1099405      0.0039257
   5946.1663374      1.1057785      0.0037307
   5952.1073633      1.1037589      0.0036401
   5958.0587124      1.1022989      0.0034386
   5964.0209009      1.0959781      0.0033156
   5969.9825732      1.0869642      0.0031339
   5975.9556011      1.0816948      0.0029384
   5981.9384362      1.0797111      0.0028144
   5987.9114641      1.0807498      0.0026985
   5993.9051385      1.0790938      0.0026152
   5999.8988129      1.0757926      0.0025230
   6005.8924874      1.0749573      0.0024626
   6011.9073244      1.0737804      0.0024688
   6017.9118383      1.0735534      0.0025539
   6023.9369985      1.0727717      0.0025332
   6029.9626750      1.0745341      0.0024365
   6035.9883515      1.0756214      0.0024273
   6042.0243511      1.0763981      0.0024759
   6048.0706741      1.0773239      0.0025395
   6054.1175133      1.0775450      0.0025979
   6060.1746756      1.0810026      0.0026293
   6066.2318379      1.0845156      0.0026962
   6072.2993235      1.0823996      0.0026801
   6078.3673253      1.0795186      0.0026989
   6084.4456503      1.0794039      0.0026219
   6090.5342985      1.0795346      0.0025701
   6096.6234629      1.0786318      0.0025110
   6102.7229506      1.0762135      0.0024542
   6108.8224383      1.0700992      0.0024287
   6114.9322491      1.0656891      0.0023879
   6121.0425761      1.0651015      0.0023745
   6127.1735497      1.0670286      0.0025183
   6133.2942000      1.0671003      0.0024529
   6139.4360129      1.0664148      0.0023860
   6145.5669865      1.0670718      0.0023949
   6151.7196388      1.0671145      0.0024847
   6157.8717750      1.0669011      0.0025729
   6164.0239112      1.0673358      0.0026973
   6170.1868867      1.0685270      0.0028586
   6176.3607018      1.0710406      0.0031077
   6182.5340006      1.0707960      0.0027918
   6188.7181388      1.0712878      0.0027881
   6194.9126003      1.0756017      0.0028358
   6201.1070617      1.0786703      0.0029981
   6207.3015232      1.0801584      0.0032131
   6213.5176635      1.0828813      0.0033579
   6219.7224482      1.0814312      0.0035499
   6225.9489117      1.0835074      0.0035874
   6232.1753753      1.0875876      0.0034605
   6238.4018388      1.0920039      0.0033807
   6244.6489489      1.0943547      0.0032483
   6250.8862518      1.0922824      0.0031055
   6257.1442011      1.0887637      0.0028953
   6263.4021506      1.0795255      0.0026299
   6269.6601000      1.0727036      0.0030583
   6275.9288888      1.0690114      0.0030307
   6282.2080009      1.0626292      0.0031199
   6288.4871129      1.0583100      0.0031228
   6294.7765482      1.0574319      0.0030637
   6301.0773391      1.0559930      0.0030561
   6307.3776138      1.0516810      0.0030049
   6313.6778885      1.0532284      0.0029928
   6319.9993259      1.0547829      0.0028453
   6326.3207633      1.0543190      0.0027649
   6332.6422006      1.0536656      0.0026073
   6338.9739612      1.0544586      0.0025339
   6345.3165612      1.0558554      0.0024185
   6351.6591612      1.0568463      0.0024295
   6358.0126006      1.0577160      0.0027028
   6364.3763633      1.0566558      0.0025705
   6370.7401259      1.0557231      0.0024688
   6377.1142117      1.0546561      0.0023832
   6383.4888138      1.0521226      0.0023430
   6389.8737391      1.0508202      0.0023576
   6396.2581482      1.0483248      0.0023428
   6402.6539129      1.0437669      0.0023821
   6409.0600009      1.0402180      0.0023765
   6415.4660888      1.0370599      0.0024369
   6421.8825000      1.0315450      0.0025102
   6428.3097506      1.0260431      0.0025972
   6434.7370011      1.0229574      0.0027487
   6441.1745750      1.0197952      0.0029349
   6447.6121489      1.0146528      0.0031805
   6454.0605621      1.0134398      0.0034751
   6460.5089753      1.0147253      0.0039074
   6466.9785511      1.0135484      0.0042276
   6473.4476109      1.0137537      0.0047788
   6479.9171867      1.0126252      0.0053120
   6486.3970859      1.0135477      0.0057969
   6492.8878244      1.0186472      0.0064486
   6499.3785629      1.0218071      0.0069071
   6505.8796247      1.0197585      0.0076840
   6512.3806865      1.0232503      0.0081930
   6518.8925876      1.0346096      0.0089755
   6525.4148121      1.0420638      0.0097658
   6531.9370365      1.0413408      0.0102803
   6538.4701003      1.0440557      0.0110756
   6545.0134874      1.0531529      0.0115834
   6551.5568744      1.0593246      0.0123975
   6558.1111009      1.0635762      0.0132048
   6564.6648112      1.0693744      0.0137018
   6571.2293609      1.0771527      0.0145374
   6577.8047500      1.0857581      0.0150325
   6584.3801391      1.0929267      0.0158326
   6590.9658515      1.1036420      0.0166864
   6597.5618871      1.1233056      0.0171624
   6604.1475994      1.1457653      0.0179611
   6610.7544744      1.1760893      0.0184903
   6617.3721888      1.2143201      0.0192802
   6623.9893871      1.2586082      0.0200712
   6630.6174247      1.2988383      0.0205914
   6637.2454624      1.3434340      0.0213693
   6643.8838232      1.3838789      0.0217912
   6650.5227003      1.4241726      0.0226534
   6657.1719006      1.4651313      0.0234124
   6663.8314241      1.4938239      0.0237983
   6670.5017871      1.5210789      0.0246588
   6677.1721500      1.5371156      0.0253922
   6683.8425129      1.5385166      0.0257367
   6690.5340385      1.5268955      0.0265902
   6697.2255641      1.5041510      0.0272907
   6703.9165735      1.4779588      0.0275888
   6710.6189385      1.4416058      0.0282682
   6717.3316268      1.4079992      0.0290904
   6724.0546383      1.3774073      0.0293368
   6730.7776497      1.3553106      0.0299719
   6737.5006612      1.3479633      0.0307732
   6744.2453515      1.3246796      0.0309631
   6750.9895256      1.2955486      0.0315466
   6757.7445391      1.2609398      0.0321153
   6764.4990365      1.2291065      0.0324499
   6771.2643732      1.2008936      0.0329747
   6778.0405494      1.1739191      0.0334818
   6784.8058862      1.1482877      0.0335495
   6791.5929018      1.1221009      0.0342384
   6798.3897244      1.1023548      0.0346766
   6805.1870633      1.0893751      0.0346839
   6811.9947253      1.0863984      0.0350614
   6818.8023874      1.0775723      0.0356824
   6825.6312121      1.0699449      0.0356266
   6832.4497135      1.0642112      0.0359241
   6839.2785383      1.0586417      0.0361957
   6846.1285256      1.0566761      0.0367344
   6852.9676735      1.0523523      0.0365727
   6859.8176609      1.0433197      0.0367561
   6866.6784876      1.0459605      0.0372229
   6873.5496376      1.0417407      0.0380640
   6880.4207876      1.0397943      0.0396874
   6887.3022609      1.0390350      0.0414086
   6894.1945735      1.0380784      0.0375380
   6901.0868862      1.0327201      0.0376892
   6907.9900383      1.0287966      0.0390086
   6914.8926741      1.0223061      0.0404252
   6921.8061494      1.0113313      0.0420027
   6928.7304641      1.0029483      0.0428562
   6935.6645859      1.0017034      0.0438692
   6942.5992239      1.0114102      0.0450902
   6949.5447011      1.0045354      0.0444273
   6956.4896624      0.9962598      0.0426638
   6963.4454629      0.9878845      0.0410494
   6970.4115867      0.9796578      0.0392963
   6977.3885500      0.9745147      0.0379960
   6984.3655133      0.9727004      0.0362643
   6991.3424765      0.9696176      0.0352250
   6998.3400862      0.9710187      0.0353011
   7005.3382121      0.9705693      0.0374619
   7012.3466612      0.9734956      0.0358309
   7019.3556265      0.9744734      0.0342884
   7026.3743989      0.9777498      0.0330801
   7033.4045268      0.9784521      0.0330488
   7040.4341385      0.9838865      0.0323043
   7047.4740735      0.9832264      0.0318287
   7054.5253641      0.9839806      0.0311849
   7061.5761385      0.9848763      0.0315292
   7068.6372362      0.9921119      0.0308887
   7075.7091732      0.9911354      0.0303959
   7082.7816265      0.9875233      0.0301809
   7089.8638867      0.9843470      0.0299710
   7096.9569865      0.9808537      0.0296977
   7104.0500862      0.9733620      0.0293672
   7111.1643485      0.9695533      0.0292267
   7118.2682876      0.9685960      0.0283982
   7125.3928732      0.9656057      0.0276744
   7132.5179750      0.9607782      0.0268068
   7139.6534000      0.9628931      0.0259740
   7146.7888250      0.9622868      0.0251486
   7153.9345732      0.9574057      0.0242673
   7161.0911609      0.9526604      0.0235424
   7168.2477485      0.9459832      0.0231888
   7175.4254989      0.9371578      0.0225388
   7182.5929259      0.9389544      0.0220036
   7189.7809994      0.9449248      0.0213518
   7196.9695891      0.9447684      0.0207041
   7204.1679859      0.9446800      0.0200875
   7211.3777383      0.9394524      0.0195155
   7218.5869744      0.9308655      0.0189466
   7225.8070500      0.9302123      0.0183816
   7233.0271256      0.9370722      0.0178214
   7240.2575244      0.9405416      0.0172666
   7247.4987626      0.9457076      0.0169596
   7254.7503241      0.9501919      0.0163404
   7262.0024018      0.9509057      0.0158019
   7269.2642865      0.9502853      0.0152719
   7276.5375268      0.9479446      0.0147514
   7283.8102509      0.9449030      0.0142409
   7291.1041376      0.9431039      0.0137414
   7298.3877011      0.9387856      0.0132535
   7305.6919112      0.9377636      0.0127779
   7312.9966374      0.9399590      0.0122779
   7320.3013635      0.9401035      0.0118295
   7327.6267362      0.9353112      0.0113952
   7334.9526250      0.9293991      0.0109755
   7342.2888371      0.9263270      0.0105707
   7349.6358885      0.9251605      0.0101810
   7356.9824239      0.9226770      0.0098066
   7364.3397985      0.9209365      0.0094473
   7371.7080126      0.9231483      0.0091031
   7379.0762268      0.9231546      0.0087737
   7386.4547641      0.9248719      0.0084590
   7393.8436247      0.9266218      0.0081309
   7401.2433247      0.9237528      0.0078452
   7408.6430247      0.9223236      0.0079370
   7416.0427247      0.9206154      0.0080506
   7423.4635874      0.9198302      0.0083038
   7430.8947732      0.9149158      0.0070538
